# k =   0.000000   0.000000   0.000000 spin = 1
# <ib|Sigma_CH[1..Nb]|ib> (eV), partial and symmetrized sum with up to Nb "inner" bands
# Reporting only VBM and CBM, use 'full_ch_conv_log 1' keyword for full report.
# 1/N extrap for CH(vbm) CH(cbm) diff =  -8.88938776E+00  -8.51937870E+00   3.70009064E-01
# Error est. for CH(vbm) CH(cbm) diff =   6.51645509E-01   5.84781699E-01  -6.68638096E-02
#    Nb          CH(vbm)          CH(cbm)             diff
      1  -7.40169080E-01  -7.45769474E-01  -5.60039437E-03
      2  -2.34235664E+00  -1.39291534E+00   9.49441296E-01
      3  -3.74663363E+00  -2.06664635E+00   1.67998728E+00
      4  -5.25703787E+00  -2.64487266E+00   2.61216520E+00
      5  -5.45149672E+00  -3.68862906E+00   1.76286766E+00
      6  -5.68027559E+00  -4.70118192E+00   9.79093668E-01
      7  -6.03775366E+00  -5.69212093E+00   3.45632725E-01
      8  -6.33224951E+00  -6.05269810E+00   2.79551414E-01
      9  -6.60197006E+00  -6.25797959E+00   3.43990473E-01
     10  -6.80626393E+00  -6.48867236E+00   3.17591572E-01
     11  -6.95201919E+00  -6.65908587E+00   2.92933319E-01
     12  -7.14375798E+00  -6.83849147E+00   3.05266504E-01
     13  -7.24043453E+00  -6.95948608E+00   2.80948450E-01
     14  -7.33065900E+00  -7.08805714E+00   2.42601856E-01
     15  -7.41220398E+00  -7.18055298E+00   2.31651006E-01
     16  -7.51555514E+00  -7.25873580E+00   2.56819336E-01
     17  -7.59956543E+00  -7.33360254E+00   2.65962896E-01
     18  -7.66966756E+00  -7.39085496E+00   2.78812603E-01
     19  -7.73339118E+00  -7.45306728E+00   2.80323898E-01
     20  -7.79657837E+00  -7.51175857E+00   2.84819797E-01
     21  -7.84379810E+00  -7.56777012E+00   2.76027980E-01
     22  -7.89254178E+00  -7.61827457E+00   2.74267216E-01
     23  -7.93638505E+00  -7.65735847E+00   2.79026584E-01
     24  -7.96624366E+00  -7.69059770E+00   2.75645961E-01
     25  -8.01920685E+00  -7.72306335E+00   2.96143505E-01
     26  -8.05740129E+00  -7.75490399E+00   3.02497295E-01
     27  -8.08677210E+00  -7.78456771E+00   3.02204390E-01
     28  -8.10909420E+00  -7.81139504E+00   2.97699156E-01
     29  -8.13439915E+00  -7.83376758E+00   3.00631562E-01
     30  -8.15531128E+00  -7.85622916E+00   2.99082116E-01
     31  -8.17467979E+00  -7.87800522E+00   2.96674563E-01
     32  -8.19071427E+00  -7.89840835E+00   2.92305926E-01
     33  -8.21255428E+00  -7.91486943E+00   2.97684850E-01
     34  -8.23774226E+00  -7.93459700E+00   3.03145255E-01
# k =   0.000000   0.000000   0.250000 spin = 1
# <ib|Sigma_CH[1..Nb]|ib> (eV), partial and symmetrized sum with up to Nb "inner" bands
# Reporting only VBM and CBM, use 'full_ch_conv_log 1' keyword for full report.
# 1/N extrap for CH(vbm) CH(cbm) diff =  -8.68713906E+00  -8.58971190E+00   9.74271557E-02
# Error est. for CH(vbm) CH(cbm) diff =   5.99661720E-01   5.64197941E-01  -3.54637786E-02
#    Nb          CH(vbm)          CH(cbm)             diff
      1  -8.20010819E-01  -9.00429170E-01  -8.04183505E-02
      2  -1.90695417E+00  -1.82201163E+00   8.49425481E-02
      3  -3.52639648E+00  -2.32057039E+00   1.20582609E+00
      4  -5.18377282E+00  -2.68551597E+00   2.49825685E+00
      5  -5.40761086E+00  -4.65188334E+00   7.55727517E-01
      6  -5.73311935E+00  -4.99165991E+00   7.41459432E-01
      7  -6.07093479E+00  -5.66657278E+00   4.04362005E-01
      8  -6.34430802E+00  -6.13799501E+00   2.06313011E-01
      9  -6.56678564E+00  -6.39161997E+00   1.75165670E-01
     10  -6.77020987E+00  -6.53612341E+00   2.34086467E-01
     11  -6.91128546E+00  -6.71823342E+00   1.93052049E-01
     12  -7.06745329E+00  -6.88741424E+00   1.80039051E-01
     13  -7.16169675E+00  -7.02799302E+00   1.33703730E-01
     14  -7.24611575E+00  -7.15629733E+00   8.98184297E-02
     15  -7.32338858E+00  -7.24588979E+00   7.74987965E-02
     16  -7.41751815E+00  -7.33524191E+00   8.22762430E-02
     17  -7.49293540E+00  -7.40308391E+00   8.98514925E-02
     18  -7.55942353E+00  -7.48229730E+00   7.71262234E-02
     19  -7.62313777E+00  -7.55111320E+00   7.20245782E-02
     20  -7.67797096E+00  -7.60110370E+00   7.68672550E-02
     21  -7.72118288E+00  -7.65472865E+00   6.64542267E-02
     22  -7.76751592E+00  -7.70114067E+00   6.63752432E-02
     23  -7.80913212E+00  -7.74446308E+00   6.46690409E-02
     24  -7.83598338E+00  -7.78072261E+00   5.52607717E-02
     25  -7.88304231E+00  -7.81985730E+00   6.31850087E-02
     26  -7.91720567E+00  -7.84872376E+00   6.84819082E-02
     27  -7.94617266E+00  -7.87726181E+00   6.89108497E-02
     28  -7.96687971E+00  -7.90333745E+00   6.35422663E-02
     29  -7.99150618E+00  -7.92684910E+00   6.46570770E-02
     30  -8.01151758E+00  -7.94759010E+00   6.39274831E-02
     31  -8.02944556E+00  -7.97091416E+00   5.85313985E-02
     32  -8.04502928E+00  -7.98961554E+00   5.54137434E-02
     33  -8.06491246E+00  -8.00746771E+00   5.74447551E-02
     34  -8.08747734E+00  -8.02551396E+00   6.19633771E-02
# k =   0.000000   0.000000   0.500000 spin = 1
# <ib|Sigma_CH[1..Nb]|ib> (eV), partial and symmetrized sum with up to Nb "inner" bands
# Reporting only VBM and CBM, use 'full_ch_conv_log 1' keyword for full report.
# 1/N extrap for CH(vbm) CH(cbm) diff =  -8.63778484E+00  -8.54298690E+00   9.47979439E-02
# Error est. for CH(vbm) CH(cbm) diff =   5.77439200E-01   5.61140422E-01  -1.62987777E-02
#    Nb          CH(vbm)          CH(cbm)             diff
      1  -8.68998890E-01  -9.29957118E-01  -6.09582278E-02
      2  -1.81286560E+00  -1.84421685E+00  -3.13512438E-02
      3  -3.42298138E+00  -2.41590552E+00   1.00707586E+00
      4  -5.24582587E+00  -2.69480191E+00   2.55102396E+00
      5  -5.45006087E+00  -4.82279175E+00   6.27269122E-01
      6  -5.76618544E+00  -5.06973108E+00   6.96454353E-01
      7  -6.11422475E+00  -5.77262936E+00   3.41595388E-01
      8  -6.39837387E+00  -6.18262079E+00   2.15753082E-01
      9  -6.59919257E+00  -6.39814771E+00   2.01044858E-01
     10  -6.79516826E+00  -6.53558627E+00   2.59581985E-01
     11  -6.92668964E+00  -6.70081555E+00   2.25874090E-01
     12  -7.07097192E+00  -6.86072716E+00   2.10244766E-01
     13  -7.15970635E+00  -7.01205104E+00   1.47655312E-01
     14  -7.24132250E+00  -7.12810034E+00   1.13222162E-01
     15  -7.31747908E+00  -7.21530085E+00   1.02178230E-01
     16  -7.40464576E+00  -7.30622873E+00   9.84170235E-02
     17  -7.48229076E+00  -7.37271887E+00   1.09571898E-01
     18  -7.54688362E+00  -7.45228337E+00   9.46002468E-02
     19  -7.60980785E+00  -7.52378497E+00   8.60228825E-02
     20  -7.66271708E+00  -7.56818305E+00   9.45340235E-02
     21  -7.70357716E+00  -7.61900171E+00   8.45754471E-02
     22  -7.74962456E+00  -7.66458177E+00   8.50427924E-02
     23  -7.78918152E+00  -7.70582407E+00   8.33574422E-02
     24  -7.81652933E+00  -7.74254837E+00   7.39809630E-02
     25  -7.86101511E+00  -7.78184876E+00   7.91663453E-02
     26  -7.89440376E+00  -7.80822289E+00   8.61808706E-02
     27  -7.92319834E+00  -7.83589859E+00   8.72997421E-02
     28  -7.94376562E+00  -7.86177514E+00   8.19904790E-02
     29  -7.96740658E+00  -7.88515211E+00   8.22544778E-02
     30  -7.98722502E+00  -7.90508721E+00   8.21378064E-02
     31  -8.00446443E+00  -7.92754256E+00   7.69218651E-02
     32  -8.01975966E+00  -7.94611138E+00   7.36482768E-02
     33  -8.03859066E+00  -7.96457321E+00   7.40174555E-02
     34  -8.06034564E+00  -7.98184647E+00   7.84991662E-02
# k =   0.000000   0.000000   0.750000 spin = 1
# <ib|Sigma_CH[1..Nb]|ib> (eV), partial and symmetrized sum with up to Nb "inner" bands
# Reporting only VBM and CBM, use 'full_ch_conv_log 1' keyword for full report.
# 1/N extrap for CH(vbm) CH(cbm) diff =  -8.68811229E+00  -8.59787224E+00   9.02400497E-02
# Error est. for CH(vbm) CH(cbm) diff =   6.00433321E-01   5.72331312E-01  -2.81020092E-02
#    Nb          CH(vbm)          CH(cbm)             diff
      1  -8.14546261E-01  -8.82222247E-01  -6.76759860E-02
      2  -1.90668286E+00  -1.82023388E+00   8.64489813E-02
      3  -3.50241865E+00  -2.34213246E+00   1.16028619E+00
      4  -5.18596549E+00  -2.68397180E+00   2.50199369E+00
      5  -5.40942404E+00  -4.67722464E+00   7.32199395E-01
      6  -5.70984100E+00  -5.02856712E+00   6.81273877E-01
      7  -6.06898208E+00  -5.60982619E+00   4.59155898E-01
      8  -6.34549085E+00  -6.14030239E+00   2.05188459E-01
      9  -6.56997637E+00  -6.38059656E+00   1.89379807E-01
     10  -6.77054964E+00  -6.53641406E+00   2.34135581E-01
     11  -6.90802742E+00  -6.71662215E+00   1.91405277E-01
     12  -7.06803220E+00  -6.89047147E+00   1.77560738E-01
     13  -7.15999681E+00  -7.02885720E+00   1.31139616E-01
     14  -7.24646410E+00  -7.15600823E+00   9.04558692E-02
     15  -7.32501326E+00  -7.24482677E+00   8.01864911E-02
     16  -7.41667271E+00  -7.33711750E+00   7.95552093E-02
     17  -7.49351159E+00  -7.40247738E+00   9.10342129E-02
     18  -7.55987322E+00  -7.48231578E+00   7.75574449E-02
     19  -7.62164396E+00  -7.55009944E+00   7.15445135E-02
     20  -7.67834959E+00  -7.60132295E+00   7.70266324E-02
     21  -7.72218051E+00  -7.65348660E+00   6.86939078E-02
     22  -7.76913694E+00  -7.70150169E+00   6.76352486E-02
     23  -7.80857809E+00  -7.74340101E+00   6.51770832E-02
     24  -7.83946992E+00  -7.78081277E+00   5.86571489E-02
     25  -7.88301098E+00  -7.81978050E+00   6.32304719E-02
     26  -7.91738986E+00  -7.84900526E+00   6.83846020E-02
     27  -7.94652209E+00  -7.87730290E+00   6.92191930E-02
     28  -7.96769144E+00  -7.90309492E+00   6.45965230E-02
     29  -7.99183379E+00  -7.92675065E+00   6.50831445E-02
     30  -8.01138270E+00  -7.94847881E+00   6.29038903E-02
     31  -8.02957252E+00  -7.97015403E+00   5.94184912E-02
     32  -8.04530362E+00  -7.98962168E+00   5.56819342E-02
     33  -8.06452559E+00  -8.00784299E+00   5.66826006E-02
     34  -8.08767897E+00  -8.02554093E+00   6.21380404E-02
# k =   0.000000   0.250000   0.000000 spin = 1
# <ib|Sigma_CH[1..Nb]|ib> (eV), partial and symmetrized sum with up to Nb "inner" bands
# Reporting only VBM and CBM, use 'full_ch_conv_log 1' keyword for full report.
# 1/N extrap for CH(vbm) CH(cbm) diff =  -8.68808496E+00  -8.59493650E+00   9.31484592E-02
# Error est. for CH(vbm) CH(cbm) diff =   5.97861660E-01   5.67233424E-01  -3.06282369E-02
#    Nb          CH(vbm)          CH(cbm)             diff
      1  -7.89605599E-01  -8.87222009E-01  -9.76164106E-02
      2  -1.87986485E+00  -1.83103671E+00   4.88281422E-02
      3  -3.48279516E+00  -2.37154153E+00   1.11125362E+00
      4  -5.18498397E+00  -2.68631883E+00   2.49866514E+00
      5  -5.42724080E+00  -4.68233441E+00   7.44906389E-01
      6  -5.72677936E+00  -5.03255465E+00   6.94224708E-01
      7  -6.07233279E+00  -5.68272291E+00   3.89609882E-01
      8  -6.34668694E+00  -6.14073652E+00   2.05950415E-01
      9  -6.57094993E+00  -6.38706073E+00   1.83889196E-01
     10  -6.77351193E+00  -6.53868884E+00   2.34823094E-01
     11  -6.91288197E+00  -6.72239151E+00   1.90490466E-01
     12  -7.06969857E+00  -6.89194411E+00   1.77754458E-01
     13  -7.16172570E+00  -7.03679935E+00   1.24926353E-01
     14  -7.24875844E+00  -7.15835130E+00   9.04071382E-02
     15  -7.32611009E+00  -7.24685076E+00   7.92593341E-02
     16  -7.41985121E+00  -7.33834430E+00   8.15069150E-02
     17  -7.49838412E+00  -7.41150804E+00   8.68760810E-02
     18  -7.56216453E+00  -7.48441910E+00   7.77454302E-02
     19  -7.62213955E+00  -7.55210135E+00   7.00382032E-02
     20  -7.68071692E+00  -7.60333168E+00   7.73852464E-02
     21  -7.72310976E+00  -7.65541932E+00   6.76904363E-02
     22  -7.76918485E+00  -7.70323295E+00   6.59518949E-02
     23  -7.81089940E+00  -7.74537487E+00   6.55245341E-02
     24  -7.83891272E+00  -7.78278416E+00   5.61285589E-02
     25  -7.88541302E+00  -7.82064894E+00   6.47640858E-02
     26  -7.91993225E+00  -7.85091466E+00   6.90175858E-02
     27  -7.94869121E+00  -7.87973273E+00   6.89584740E-02
     28  -7.96943689E+00  -7.90579141E+00   6.36454775E-02
     29  -7.99301492E+00  -7.92861570E+00   6.43992240E-02
     30  -8.01424181E+00  -7.94979341E+00   6.44484029E-02
     31  -8.03236572E+00  -7.97280952E+00   5.95561994E-02
     32  -8.04776973E+00  -7.99182268E+00   5.59470530E-02
     33  -8.06798648E+00  -8.01053684E+00   5.74496373E-02
     34  -8.09022330E+00  -8.02770308E+00   6.25202224E-02
# k =   0.000000   0.250000   0.250000 spin = 1
# <ib|Sigma_CH[1..Nb]|ib> (eV), partial and symmetrized sum with up to Nb "inner" bands
# Reporting only VBM and CBM, use 'full_ch_conv_log 1' keyword for full report.
# 1/N extrap for CH(vbm) CH(cbm) diff =  -8.37340007E+00  -7.88458528E+00   4.88814797E-01
# Error est. for CH(vbm) CH(cbm) diff =   5.31618152E-01   4.90711627E-01  -4.09065247E-02
#    Nb          CH(vbm)          CH(cbm)             diff
      1  -8.68413822E-01  -7.34360023E-01   1.34053799E-01
      2  -1.89824086E+00  -1.32591125E+00   5.72329610E-01
      3  -3.55347988E+00  -2.03118554E+00   1.52229434E+00
      4  -5.10834842E+00  -2.38337527E+00   2.72497315E+00
      5  -5.37992416E+00  -4.31727957E+00   1.06264459E+00
      6  -5.74136712E+00  -5.00877998E+00   7.32587141E-01
      7  -6.03224826E+00  -5.47357982E+00   5.58668439E-01
      8  -6.26660853E+00  -5.74291095E+00   5.23697581E-01
      9  -6.47313688E+00  -5.95541857E+00   5.17718313E-01
     10  -6.65978518E+00  -6.12247910E+00   5.37306075E-01
     11  -6.78730413E+00  -6.30239312E+00   4.84911008E-01
     12  -6.91973932E+00  -6.42048509E+00   4.99254232E-01
     13  -7.01127697E+00  -6.55628144E+00   4.54995525E-01
     14  -7.09127160E+00  -6.66241158E+00   4.28860023E-01
     15  -7.16460289E+00  -6.74124303E+00   4.23359862E-01
     16  -7.24502847E+00  -6.80790639E+00   4.37122078E-01
     17  -7.31445521E+00  -6.87344936E+00   4.41005848E-01
     18  -7.37154527E+00  -6.93019347E+00   4.41351801E-01
     19  -7.42270345E+00  -6.98693724E+00   4.35766212E-01
     20  -7.47596318E+00  -7.03041162E+00   4.45551559E-01
     21  -7.51456098E+00  -7.07355571E+00   4.41005273E-01
     22  -7.55776484E+00  -7.11837298E+00   4.39391862E-01
     23  -7.59356647E+00  -7.15302277E+00   4.40543703E-01
     24  -7.61970286E+00  -7.18314372E+00   4.36559140E-01
     25  -7.65761270E+00  -7.21302553E+00   4.44587170E-01
     26  -7.68774100E+00  -7.23995249E+00   4.47788516E-01
     27  -7.71370332E+00  -7.26623549E+00   4.47467826E-01
     28  -7.73311921E+00  -7.28996790E+00   4.43151308E-01
     29  -7.75450309E+00  -7.30892083E+00   4.45582261E-01
     30  -7.77366754E+00  -7.32790426E+00   4.45763281E-01
     31  -7.79033500E+00  -7.34638543E+00   4.43949576E-01
     32  -7.80472081E+00  -7.36312562E+00   4.41595193E-01
     33  -7.82187760E+00  -7.37791858E+00   4.43959025E-01
     34  -7.84178192E+00  -7.39387365E+00   4.47908272E-01
# k =   0.000000   0.250000   0.500000 spin = 1
# <ib|Sigma_CH[1..Nb]|ib> (eV), partial and symmetrized sum with up to Nb "inner" bands
# Reporting only VBM and CBM, use 'full_ch_conv_log 1' keyword for full report.
# 1/N extrap for CH(vbm) CH(cbm) diff =  -8.33748338E+00  -7.80383749E+00   5.33645884E-01
# Error est. for CH(vbm) CH(cbm) diff =   5.15095021E-01   4.93707316E-01  -2.13877053E-02
#    Nb          CH(vbm)          CH(cbm)             diff
      1  -9.26123405E-01  -6.83103568E-01   2.43019837E-01
      2  -1.82123313E+00  -1.26366249E+00   5.57570632E-01
      3  -2.86149872E+00  -1.89682711E+00   9.64671611E-01
      4  -5.15022473E+00  -2.26705260E+00   2.88317213E+00
      5  -5.41776619E+00  -4.27654908E+00   1.14121711E+00
      6  -5.74659117E+00  -4.85172440E+00   8.94866764E-01
      7  -6.04729419E+00  -5.23856939E+00   8.08724798E-01
      8  -6.29609102E+00  -5.61353831E+00   6.82552709E-01
      9  -6.48413299E+00  -5.86068190E+00   6.23451089E-01
     10  -6.67404896E+00  -6.03171246E+00   6.42336498E-01
     11  -6.79713716E+00  -6.19056204E+00   6.06575113E-01
     12  -6.91757963E+00  -6.32076374E+00   5.96815891E-01
     13  -7.00887543E+00  -6.46639932E+00   5.42476104E-01
     14  -7.08446004E+00  -6.56504700E+00   5.19413041E-01
     15  -7.15722678E+00  -6.64759626E+00   5.09630526E-01
     16  -7.23286902E+00  -6.71321602E+00   5.19652996E-01
     17  -7.30341090E+00  -6.78432381E+00   5.19087087E-01
     18  -7.36132122E+00  -6.84653588E+00   5.14785347E-01
     19  -7.41321187E+00  -6.90905809E+00   5.04153781E-01
     20  -7.46474784E+00  -6.95121774E+00   5.13530109E-01
     21  -7.50366919E+00  -6.99307595E+00   5.10593237E-01
     22  -7.54464876E+00  -7.03428091E+00   5.10367852E-01
     23  -7.57916906E+00  -7.06735931E+00   5.11809748E-01
     24  -7.60539532E+00  -7.09845326E+00   5.06942065E-01
     25  -7.64217334E+00  -7.12889166E+00   5.13281686E-01
     26  -7.67144663E+00  -7.15645146E+00   5.14995175E-01
     27  -7.69777644E+00  -7.18351790E+00   5.14258547E-01
     28  -7.71689164E+00  -7.20688086E+00   5.10010776E-01
     29  -7.73737012E+00  -7.22510063E+00   5.12269493E-01
     30  -7.75635664E+00  -7.24437060E+00   5.11986039E-01
     31  -7.77254045E+00  -7.26235205E+00   5.10188401E-01
     32  -7.78664852E+00  -7.27878935E+00   5.07859169E-01
     33  -7.80320894E+00  -7.29422769E+00   5.08981252E-01
     34  -7.82238836E+00  -7.31013018E+00   5.12258179E-01
# k =   0.000000   0.250000   0.750000 spin = 1
# <ib|Sigma_CH[1..Nb]|ib> (eV), partial and symmetrized sum with up to Nb "inner" bands
# Reporting only VBM and CBM, use 'full_ch_conv_log 1' keyword for full report.
# 1/N extrap for CH(vbm) CH(cbm) diff =  -8.55778486E+00  -8.15385629E+00   4.03928576E-01
# Error est. for CH(vbm) CH(cbm) diff =   5.63158591E-01   5.44343415E-01  -1.88151762E-02
#    Nb          CH(vbm)          CH(cbm)             diff
      1  -8.52586631E-01  -7.15376190E-01   1.37210442E-01
      2  -1.79658222E+00  -1.33713613E+00   4.59446089E-01
      3  -2.84436804E+00  -1.98419281E+00   8.60175228E-01
      4  -5.16900924E+00  -2.36920150E+00   2.79980775E+00
      5  -5.41929933E+00  -4.31253091E+00   1.10676842E+00
      6  -5.74356317E+00  -4.71513697E+00   1.02842621E+00
      7  -6.08639022E+00  -5.28561120E+00   8.00779025E-01
      8  -6.35581994E+00  -5.73312568E+00   6.22694264E-01
      9  -6.53832966E+00  -5.97977404E+00   5.58555618E-01
     10  -6.74586861E+00  -6.17748044E+00   5.68388167E-01
     11  -6.88287289E+00  -6.36744878E+00   5.15424115E-01
     12  -7.01524904E+00  -6.50601360E+00   5.09235438E-01
     13  -7.10656659E+00  -6.65158201E+00   4.54984575E-01
     14  -7.19280673E+00  -6.78162577E+00   4.11180957E-01
     15  -7.27269143E+00  -6.87865948E+00   3.94031948E-01
     16  -7.35380900E+00  -6.95100023E+00   4.02808773E-01
     17  -7.42701933E+00  -7.02283875E+00   4.04180586E-01
     18  -7.49180455E+00  -7.09414554E+00   3.97659010E-01
     19  -7.54985383E+00  -7.16731935E+00   3.82534479E-01
     20  -7.60656901E+00  -7.21347442E+00   3.93094589E-01
     21  -7.64801718E+00  -7.25927554E+00   3.88741641E-01
     22  -7.69247486E+00  -7.30594338E+00   3.86531482E-01
     23  -7.72951749E+00  -7.34210669E+00   3.87410799E-01
     24  -7.75804913E+00  -7.37680812E+00   3.81241008E-01
     25  -7.79914832E+00  -7.41020244E+00   3.88945885E-01
     26  -7.83112857E+00  -7.43952859E+00   3.91599984E-01
     27  -7.86029646E+00  -7.47033808E+00   3.89958377E-01
     28  -7.87985450E+00  -7.49483890E+00   3.85015604E-01
     29  -7.90302068E+00  -7.51632933E+00   3.86691347E-01
     30  -7.92210885E+00  -7.53704422E+00   3.85064634E-01
     31  -7.94012705E+00  -7.55683448E+00   3.83292576E-01
     32  -7.95515325E+00  -7.57530443E+00   3.79848825E-01
     33  -7.97338884E+00  -7.59215074E+00   3.81238095E-01
     34  -7.99462627E+00  -7.60951287E+00   3.85113400E-01
# k =   0.000000   0.500000   0.000000 spin = 1
# <ib|Sigma_CH[1..Nb]|ib> (eV), partial and symmetrized sum with up to Nb "inner" bands
# Reporting only VBM and CBM, use 'full_ch_conv_log 1' keyword for full report.
